# Wavelength (nm)    Crosssection (cm^2),
250.5,3.82E-22
251.5,4.62E-22
252.5,5.55E-22
253.5,6.64E-22
254.5,7.93E-22
255.5,9.44E-22
256.5,1.12E-21
257.5,1.33E-21
258.5,1.56E-21
259.5,1.83E-21
260.5,2.15E-21
261.5,2.50E-21
262.5,2.92E-21
263.5,3.38E-21
264.5,3.91E-21
265.5,4.51E-21
266.5,5.18E-21
267.5,5.94E-21
268.5,6.78E-21
269.5,7.73E-21
270.5,8.78E-21
271.5,9.97E-21
272.5,1.13E-20
273.5,1.27E-20
274.5,1.42E-20
275.5,1.60E-20
276.5,1.78E-20
277.5,1.99E-20
278.5,2.21E-20
279.5,2.45E-20
280.5,2.70E-20
281.5,2.99E-20
282.5,3.29E-20
283.5,3.61E-20
284.5,3.95E-20
285.5,4.31E-20
286.5,4.70E-20
287.5,5.11E-20
288.5,5.54E-20
289.5,5.99E-20
290.5,6.47E-20
291.5,6.96E-20
292.5,7.48E-20
293.5,8.01E-20
294.5,8.57E-20
295.5,9.15E-20
296.5,9.74E-20
297.5,1.03E-19
298.5,1.10E-19
299.5,1.16E-19
300.5,1.23E-19
301.5,1.29E-19
302.5,1.36E-19
303.5,1.43E-19
304.5,1.49E-19
305.5,1.56E-19
306.5,1.63E-19
307.5,1.69E-19
308.5,1.76E-19
309.5,1.82E-19
310.5,1.89E-19
311.5,1.95E-19
312.5,2.01E-19
313.5,2.07E-19
314.5,2.12E-19
315.5,2.17E-19
316.5,2.22E-19
317.5,2.27E-19
318.5,2.32E-19
319.5,2.36E-19
320.5,2.39E-19
321.5,2.42E-19
322.5,2.45E-19
323.5,2.48E-19
324.5,2.51E-19
325.5,2.52E-19
326.5,2.54E-19
327.5,2.55E-19
328.5,2.55E-19
329.5,2.56E-19
330.5,2.55E-19
331.5,2.55E-19
332.5,2.54E-19
333.5,2.53E-19
334.5,2.51E-19
335.5,2.48E-19
336.5,2.47E-19
337.5,2.44E-19
338.5,2.41E-19
339.5,2.37E-19
340.5,2.34E-19
341.5,2.30E-19
342.5,2.25E-19
343.5,2.21E-19
344.5,2.17E-19
345.5,2.12E-19
346.5,2.07E-19
347.5,2.02E-19
348.5,1.96E-19
349.5,1.91E-19
350.5,1.85E-19
351.5,1.80E-19
352.5,1.73E-19
353.5,1.69E-19
354.5,1.63E-19
355.5,1.57E-19
356.5,1.52E-19
357.5,1.46E-19
358.5,1.41E-19
359.5,1.34E-19
360.5,1.30E-19
361.5,1.25E-19
362.5,1.20E-19
363.5,1.15E-19
364.5,1.10E-19
365.5,1.05E-19
366.5,9.95E-20
367.5,9.49E-20
368.5,9.04E-20
369.5,8.62E-20
370.5,8.20E-20
371.5,7.80E-20
372.5,7.42E-20
373.5,7.05E-20
374.5,6.69E-20
375.5,6.35E-20
376.5,6.02E-20
377.5,5.71E-20
378.5,5.42E-20
379.5,5.13E-20
380.5,4.87E-20
381.5,4.62E-20
382.5,4.37E-20
383.5,4.14E-20
384.5,3.93E-20
385.5,3.72E-20
386.5,3.53E-20
387.5,3.35E-20
388.5,3.18E-20
389.5,3.02E-20
390.5,2.87E-20
391.5,2.73E-20
392.5,2.60E-20
393.5,2.47E-20
394.5,2.36E-20
395.5,2.25E-20
396.5,2.15E-20
397.5,2.05E-20
398.5,1.96E-20
399.5,1.88E-20
400.5,1.80E-20
401.5,1.73E-20
402.5,1.67E-20
403.5,1.60E-20
404.5,1.54E-20
405.5,1.49E-20
406.5,1.44E-20
407.5,1.39E-20
408.5,1.34E-20
409.5,1.30E-20
410.5,1.26E-20
411.5,1.22E-20
412.5,1.18E-20
413.5,1.15E-20
414.5,1.12E-20
415.5,1.09E-20
416.5,1.06E-20
417.5,1.03E-20
418.5,9.95E-21
419.5,9.69E-21
420.5,9.43E-21
421.5,9.19E-21
422.5,8.95E-21
423.5,8.71E-21
424.5,8.49E-21
425.5,8.26E-21
426.5,8.05E-21
427.5,7.84E-21
428.5,7.63E-21
429.5,7.42E-21
430.5,7.22E-21
431.5,7.03E-21
432.5,6.83E-21
433.5,6.64E-21
434.5,6.45E-21
435.5,6.27E-21
436.5,6.08E-21
437.5,5.90E-21
438.5,5.72E-21
439.5,5.54E-21
440.5,5.38E-21
441.5,5.21E-21
442.5,5.04E-21
443.5,4.88E-21
444.5,4.71E-21
445.5,4.55E-21
446.5,4.40E-21
447.5,4.25E-21
448.5,4.09E-21
449.5,3.95E-21
450.5,3.80E-21
451.5,3.66E-21
452.5,3.52E-21
453.5,3.39E-21
454.5,3.25E-21
455.5,3.12E-21
456.5,3.00E-21
457.5,2.88E-21
458.5,2.76E-21
459.5,2.64E-21
460.5,2.53E-21
461.5,2.42E-21
462.5,2.31E-21
463.5,2.21E-21
464.5,2.11E-21
465.5,2.01E-21
466.5,1.92E-21
467.5,1.83E-21
468.5,1.75E-21
469.5,1.66E-21
470.5,1.58E-21
471.5,1.51E-21
472.5,1.43E-21
473.5,1.36E-21
474.5,1.29E-21
475.5,1.23E-21
476.5,1.16E-21
477.5,1.10E-21
478.5,1.04E-21
479.5,9.85E-22
480.5,9.31E-22
481.5,8.80E-22
482.5,8.32E-22
483.5,7.86E-22
484.5,7.42E-22
485.5,7.00E-22
486.5,6.60E-22
487.5,6.22E-22
488.5,5.86E-22
489.5,5.51E-22
490.5,5.18E-22
491.5,4.87E-22
492.5,4.58E-22
493.5,4.30E-22
494.5,4.04E-22
495.5,3.78E-22
496.5,3.56E-22
497.5,3.33E-22
498.5,3.12E-22
499.5,2.92E-22
500.5,2.74E-22
501.5,2.56E-22
502.5,2.40E-22
503.5,2.24E-22
504.5,2.09E-22
505.5,1.95E-22
506.5,1.82E-22
507.5,1.70E-22
508.5,1.58E-22
509.5,1.47E-22
510.5,1.37E-22
511.5,1.28E-22
512.5,1.19E-22
513.5,1.10E-22
514.5,1.03E-22
515.5,9.54E-23
516.5,8.86E-23
517.5,8.23E-23
518.5,7.63E-23
519.5,7.08E-23
520.5,6.56E-23
521.5,6.08E-23
522.5,5.63E-23
523.5,5.21E-23
524.5,4.83E-23
525.5,4.47E-23
526.5,4.13E-23
527.5,3.81E-23
528.5,3.52E-23
529.5,3.26E-23
530.5,3.01E-23
531.5,2.77E-23
532.5,2.56E-23
533.5,2.36E-23
534.5,2.17E-23
535.5,2.00E-23
536.5,1.84E-23
537.5,1.70E-23
538.5,1.56E-23
539.5,1.44E-23
540.5,1.32E-23
541.5,1.21E-23
542.5,1.11E-23
543.5,1.02E-23
544.5,9.38E-24
545.5,8.61E-24
546.5,7.89E-24
547.5,7.24E-24
548.5,6.63E-24
549.5,6.07E-24
