# Wavelength (nm) Crosssection (cm^2),
190.5,4.58E-17
191.5,5.09E-17
192.5,5.54E-17
193.5,5.95E-17
194.5,6.23E-17
195.5,6.40E-17
196.5,6.44E-17
197.5,6.35E-17
198.5,6.20E-17
199.5,5.97E-17
200.5,5.71E-17
201.5,5.40E-17
202.5,5.07E-17
203.5,4.72E-17
204.5,4.37E-17
205.5,4.02E-17
206.5,3.68E-17
207.5,3.37E-17
208.5,3.08E-17
209.5,2.82E-17
210.5,2.56E-17
211.5,2.31E-17
212.5,2.07E-17
213.5,1.87E-17
214.5,1.67E-17
215.5,1.49E-17
216.5,1.33E-17
217.5,1.18E-17
218.5,1.06E-17
219.5,9.49E-18
220.5,8.49E-18
221.5,7.54E-18
222.5,6.68E-18
223.5,5.91E-18
224.5,5.23E-18
225.5,4.65E-18
226.5,4.12E-18
227.5,3.63E-18
228.5,3.21E-18
229.5,2.84E-18
230.5,2.53E-18
231.5,2.26E-18
232.5,2.00E-18
233.5,1.76E-18
234.5,1.55E-18
235.5,1.37E-18
236.5,1.21E-18
237.5,1.08E-18
238.5,9.64E-19
239.5,8.72E-19
240.5,7.87E-19
241.5,7.11E-19
242.5,6.42E-19
243.5,5.81E-19
244.5,5.26E-19
245.5,4.77E-19
246.5,4.33E-19
247.5,3.96E-19
248.5,3.62E-19
249.5,3.32E-19
250.5,3.06E-19
251.5,2.85E-19
252.5,2.65E-19
253.5,2.46E-19
254.5,2.31E-19
255.5,2.19E-19
256.5,2.07E-19
257.5,1.96E-19
258.5,1.86E-19
259.5,1.79E-19
260.5,1.73E-19
261.5,1.68E-19
262.5,1.62E-19
263.5,1.56E-19
264.5,1.51E-19
265.5,1.46E-19
266.5,1.42E-19
267.5,1.38E-19
268.5,1.34E-19
269.5,1.31E-19
270.5,1.28E-19
271.5,1.25E-19
272.5,1.22E-19
273.5,1.19E-19
274.5,1.17E-19
275.5,1.14E-19
276.5,1.12E-19
277.5,1.09E-19
278.5,1.07E-19
279.5,1.06E-19
280.5,1.05E-19
281.5,1.03E-19
282.5,1.01E-19
283.5,1.00E-19
284.5,9.95E-20
285.5,9.88E-20
286.5,9.81E-20
287.5,9.74E-20
288.5,9.69E-20
289.5,9.66E-20
290.5,9.64E-20
291.5,9.63E-20
292.5,9.64E-20
293.5,9.68E-20
294.5,9.70E-20
295.5,9.71E-20
296.5,9.71E-20
297.5,9.70E-20
298.5,9.77E-20
299.5,9.92E-20
300.5,1.01E-19
301.5,1.02E-19
302.5,1.03E-19
303.5,1.04E-19
304.5,1.06E-19
305.5,1.07E-19
306.5,1.09E-19
307.5,1.10E-19
308.5,1.12E-19
309.5,1.14E-19
310.5,1.16E-19
311.5,1.18E-19
312.5,1.20E-19
313.5,1.21E-19
314.5,1.23E-19
315.5,1.24E-19
316.5,1.26E-19
317.5,1.29E-19
318.5,1.31E-19
319.5,1.33E-19
320.5,1.34E-19
321.5,1.36E-19
322.5,1.37E-19
323.5,1.39E-19
324.5,1.41E-19
325.5,1.42E-19
326.5,1.44E-19
327.5,1.45E-19
328.5,1.46E-19
329.5,1.47E-19
330.5,1.48E-19
331.5,1.49E-19
332.5,1.50E-19
333.5,1.51E-19
334.5,1.52E-19
335.5,1.53E-19
336.5,1.53E-19
337.5,1.53E-19
338.5,1.53E-19
339.5,1.52E-19
340.5,1.52E-19
341.5,1.53E-19
342.5,1.53E-19
343.5,1.52E-19
344.5,1.51E-19
345.5,1.51E-19
346.5,1.51E-19
347.5,1.50E-19
348.5,1.47E-19
349.5,1.44E-19
350.5,1.41E-19
351.5,1.40E-19
352.5,1.39E-19
353.5,1.38E-19
354.5,1.37E-19
355.5,1.35E-19
356.5,1.34E-19
357.5,1.33E-19
358.5,1.31E-19
359.5,1.30E-19
360.5,1.28E-19
361.5,1.26E-19
362.5,1.25E-19
363.5,1.23E-19
364.5,1.21E-19
365.5,1.19E-19
366.5,1.17E-19
367.5,1.15E-19
368.5,1.13E-19
369.5,1.11E-19
370.5,1.09E-19
371.5,1.07E-19
372.5,1.05E-19
373.5,1.03E-19
374.5,1.01E-19
375.5,9.84E-20
376.5,9.62E-20
377.5,9.41E-20
378.5,9.19E-20
379.5,8.97E-20
380.5,8.76E-20
381.5,8.55E-20
382.5,8.34E-20
383.5,8.13E-20
384.5,7.92E-20
385.5,7.73E-20
386.5,7.54E-20
387.5,7.35E-20
388.5,7.16E-20
389.5,6.97E-20
390.5,6.79E-20
391.5,6.61E-20
392.5,6.42E-20
393.5,6.24E-20
394.5,6.06E-20
395.5,5.89E-20
396.5,5.72E-20
397.5,5.55E-20
398.5,5.38E-20
399.5,5.21E-20
400.5,5.06E-20
401.5,4.91E-20
402.5,4.77E-20
403.5,4.62E-20
404.5,4.47E-20
405.5,4.34E-20
406.5,4.23E-20
407.5,4.12E-20
408.5,4.00E-20
409.5,3.89E-20
410.5,3.79E-20
411.5,3.70E-20
412.5,3.61E-20
413.5,3.52E-20
414.5,3.43E-20
415.5,3.33E-20
416.5,3.23E-20
417.5,3.14E-20
418.5,3.04E-20
419.5,2.94E-20
420.5,2.85E-20
421.5,2.76E-20
422.5,2.67E-20
423.5,2.58E-20
424.5,2.49E-20
425.5,2.43E-20
426.5,2.38E-20
427.5,2.33E-20
428.5,2.28E-20
429.5,2.23E-20
430.5,2.21E-20
431.5,2.21E-20
432.5,2.20E-20
433.5,2.20E-20
434.5,2.20E-20
435.5,2.20E-20
436.5,2.20E-20
437.5,2.20E-20
438.5,2.20E-20
439.5,2.20E-20
440.5,2.19E-20
441.5,2.16E-20
442.5,2.14E-20
443.5,2.11E-20
444.5,2.08E-20
445.5,2.05E-20
446.5,2.01E-20
447.5,1.97E-20
448.5,1.93E-20
449.5,1.89E-20
450.5,1.86E-20
451.5,1.85E-20
452.5,1.83E-20
453.5,1.81E-20
454.5,1.80E-20
455.5,1.81E-20
456.5,1.84E-20
457.5,1.87E-20
458.5,1.90E-20
459.5,1.93E-20
460.5,1.98E-20
461.5,2.04E-20
462.5,2.10E-20
463.5,2.16E-20
464.5,2.22E-20
465.5,2.28E-20
466.5,2.32E-20
467.5,2.38E-20
468.5,2.43E-20
469.5,2.48E-20
470.5,2.51E-20
471.5,2.53E-20
472.5,2.56E-20
473.5,2.58E-20
474.5,2.60E-20
475.5,2.60E-20
476.5,2.59E-20
477.5,2.57E-20
478.5,2.55E-20
479.5,2.54E-20
480.5,2.51E-20
481.5,2.47E-20
482.5,2.43E-20
483.5,2.39E-20
484.5,2.35E-20
485.5,2.30E-20
486.5,2.25E-20
487.5,2.20E-20
488.5,2.15E-20
489.5,2.10E-20
490.5,2.04E-20
491.5,1.98E-20
492.5,1.93E-20
493.5,1.87E-20
494.5,1.81E-20
495.5,1.75E-20
496.5,1.70E-20
497.5,1.64E-20
498.5,1.58E-20
499.5,1.53E-20
