# Wavelength (nm)    Crosssection (cm^2)
5.000000000000000000e-01,2.415998000000000196e-19
1.500000000000000000e+00,2.415998000000000196e-19
2.500000000000000000e+00,2.415998000000000196e-19
3.500000000000000000e+00,2.415998000000000196e-19
4.500000000000000000e+00,2.415998000000000196e-19
5.500000000000000000e+00,2.415998000000000196e-19
6.500000000000000000e+00,2.415998000000000196e-19
7.500000000000000000e+00,3.099655000000000263e-19
8.500000000000000000e+00,4.141072000000000825e-19
9.500000000000000000e+00,5.323357000000000116e-19
1.050000000000000000e+01,6.635330000000000422e-19
1.150000000000000000e+01,8.317619999999999426e-19
1.250000000000000000e+01,1.025059800000000057e-18
1.350000000000000000e+01,1.231664700000000017e-18
1.450000000000000000e+01,1.440143999999999846e-18
1.550000000000000000e+01,1.659679400000000077e-18
1.650000000000000000e+01,1.889956500000000009e-18
1.750000000000000000e+01,2.115783699999999966e-18
1.850000000000000000e+01,2.362743899999999823e-18
1.950000000000000000e+01,2.634519300000000171e-18
2.050000000000000000e+01,2.924892900000000437e-18
2.150000000000000000e+01,3.233084399999999988e-18
2.250000000000000000e+01,3.487770000000000047e-18
2.350000000000000000e+01,3.775656199999999836e-18
2.450000000000000000e+01,4.089041999999999878e-18
2.550000000000000000e+01,4.389491699999999993e-18
2.650000000000000000e+01,4.700802600000000403e-18
2.750000000000000000e+01,5.008640000000000182e-18
2.850000000000000000e+01,5.401733599999999774e-18
2.950000000000000000e+01,5.718348999999999801e-18
3.050000000000000000e+01,6.029262899999999118e-18
3.150000000000000000e+01,6.383771999999999684e-18
3.250000000000000000e+01,6.775919999999998994e-18
3.350000000000000000e+01,7.108874999999999084e-18
3.450000000000000000e+01,7.534230000000000315e-18
3.550000000000000000e+01,7.911014999999999347e-18
3.650000000000000000e+01,8.206081999999999350e-18
3.750000000000000000e+01,8.508942000000000526e-18
3.850000000000000000e+01,8.901888000000000068e-18
3.950000000000000000e+01,9.161187000000000401e-18
4.050000000000000000e+01,9.478550000000001075e-18
4.150000000000000000e+01,1.013505900000000085e-17
4.250000000000000000e+01,1.052966400000000092e-17
4.350000000000000000e+01,1.093040399999999961e-17
4.450000000000000000e+01,1.134532499999999937e-17
4.550000000000000000e+01,1.148558999999999868e-17
4.650000000000000000e+01,1.159124399999999893e-17
4.750000000000000000e+01,1.178355600000000090e-17
4.850000000000000000e+01,1.214085599999999976e-17
4.950000000000000000e+01,1.225503900000000088e-17
5.050000000000000000e+01,1.250224800000000084e-17
5.150000000000000000e+01,1.296828000000000107e-17
5.250000000000000000e+01,1.312663600000000008e-17
5.350000000000000000e+01,1.323884800000000045e-17
5.450000000000000000e+01,1.341097999999999949e-17
5.550000000000000000e+01,1.361287999999999994e-17
5.650000000000000000e+01,1.363518900000000042e-17
5.750000000000000000e+01,1.357450000000000122e-17
5.850000000000000000e+01,1.379798499999999969e-17
5.950000000000000000e+01,1.395778000000000185e-17
6.050000000000000000e+01,1.406372400000000074e-17
6.150000000000000000e+01,1.397001600000000028e-17
6.250000000000000000e+01,1.379872499999999897e-17
6.350000000000000000e+01,1.350706199999999963e-17
6.450000000000000000e+01,1.306434799999999879e-17
6.550000000000000000e+01,1.265151899999999925e-17
6.650000000000000000e+01,1.228219999999999925e-17
6.750000000000000000e+01,1.159280799999999961e-17
6.850000000000000000e+01,1.080520500000000074e-17
6.950000000000000000e+01,1.095033600000000034e-17
7.050000000000000000e+01,1.121524400000000032e-17
7.150000000000000000e+01,1.110866399999999915e-17
7.250000000000000000e+01,1.116022000000000116e-17
7.350000000000000000e+01,1.132059600000000009e-17
7.450000000000000000e+01,1.124002800000000048e-17
7.550000000000000000e+01,1.126130699999999998e-17
7.650000000000000000e+01,1.117730999999999958e-17
7.750000000000000000e+01,1.088795000000000068e-17
7.850000000000000000e+01,1.092800000000000071e-17
7.950000000000000000e+01,1.073600000000000050e-17
8.050000000000000000e+01,1.046329700000000032e-17
8.150000000000000000e+01,9.664700000000000658e-18
8.250000000000000000e+01,8.978584000000001004e-18
8.350000000000000000e+01,7.993257999999999380e-18
8.450000000000000000e+01,7.017749999999999501e-18
8.550000000000000000e+01,5.908440000000000587e-18
8.650000000000000000e+01,5.111531999999999896e-18
8.750000000000000000e+01,4.325848599999999586e-18
8.850000000000000000e+01,3.833360599999999623e-18
8.950000000000000000e+01,3.475584000000000318e-18
9.050000000000000000e+01,3.148118399999999634e-18
9.150000000000000000e+01,2.908452800000000132e-18
9.250000000000000000e+01,2.726753599999999622e-18
9.350000000000000000e+01,2.625514599999999895e-18
9.450000000000000000e+01,2.466450799999999917e-18
9.550000000000000000e+01,2.178052500000000067e-18
9.650000000000000000e+01,2.087098799999999903e-18
9.750000000000000000e+01,1.969448000000000153e-18
9.850000000000000000e+01,2.032935999999999838e-19
9.950000000000000000e+01,0.000000000000000000e+00
1.005000000000000000e+02,0.000000000000000000e+00
1.015000000000000000e+02,0.000000000000000000e+00
1.025000000000000000e+02,0.000000000000000000e+00
1.035000000000000000e+02,0.000000000000000000e+00
1.045000000000000000e+02,0.000000000000000000e+00
1.055000000000000000e+02,0.000000000000000000e+00
1.065000000000000000e+02,0.000000000000000000e+00
1.075000000000000000e+02,0.000000000000000000e+00
1.085000000000000000e+02,0.000000000000000000e+00
1.095000000000000000e+02,0.000000000000000000e+00
1.105000000000000000e+02,0.000000000000000000e+00
1.115000000000000000e+02,0.000000000000000000e+00
1.125000000000000000e+02,0.000000000000000000e+00
1.135000000000000000e+02,0.000000000000000000e+00
1.145000000000000000e+02,0.000000000000000000e+00
1.155000000000000000e+02,0.000000000000000000e+00
1.165000000000000000e+02,0.000000000000000000e+00
1.175000000000000000e+02,0.000000000000000000e+00
1.185000000000000000e+02,0.000000000000000000e+00
1.195000000000000000e+02,0.000000000000000000e+00
1.205000000000000000e+02,0.000000000000000000e+00
1.215000000000000000e+02,0.000000000000000000e+00
1.225000000000000000e+02,0.000000000000000000e+00
1.235000000000000000e+02,0.000000000000000000e+00
1.245000000000000000e+02,0.000000000000000000e+00
1.255000000000000000e+02,0.000000000000000000e+00
1.265000000000000000e+02,0.000000000000000000e+00
1.275000000000000000e+02,0.000000000000000000e+00
1.285000000000000000e+02,0.000000000000000000e+00
1.295000000000000000e+02,0.000000000000000000e+00
1.305000000000000000e+02,0.000000000000000000e+00
1.315000000000000000e+02,0.000000000000000000e+00
1.325000000000000000e+02,0.000000000000000000e+00
1.335000000000000000e+02,0.000000000000000000e+00
1.345000000000000000e+02,0.000000000000000000e+00
1.355000000000000000e+02,0.000000000000000000e+00
1.365000000000000000e+02,0.000000000000000000e+00
1.375000000000000000e+02,0.000000000000000000e+00
1.385000000000000000e+02,0.000000000000000000e+00
1.395000000000000000e+02,0.000000000000000000e+00
1.405000000000000000e+02,0.000000000000000000e+00
1.415000000000000000e+02,0.000000000000000000e+00
1.425000000000000000e+02,0.000000000000000000e+00
1.435000000000000000e+02,0.000000000000000000e+00
1.445000000000000000e+02,0.000000000000000000e+00
1.455000000000000000e+02,0.000000000000000000e+00
1.465000000000000000e+02,0.000000000000000000e+00
1.475000000000000000e+02,0.000000000000000000e+00
1.485000000000000000e+02,0.000000000000000000e+00
1.495000000000000000e+02,0.000000000000000000e+00
1.505000000000000000e+02,0.000000000000000000e+00
1.515000000000000000e+02,0.000000000000000000e+00
1.525000000000000000e+02,0.000000000000000000e+00
1.535000000000000000e+02,0.000000000000000000e+00
1.545000000000000000e+02,0.000000000000000000e+00
1.555000000000000000e+02,0.000000000000000000e+00
1.565000000000000000e+02,0.000000000000000000e+00
1.575000000000000000e+02,0.000000000000000000e+00
1.585000000000000000e+02,0.000000000000000000e+00
1.595000000000000000e+02,0.000000000000000000e+00
1.605000000000000000e+02,0.000000000000000000e+00
1.615000000000000000e+02,0.000000000000000000e+00
1.625000000000000000e+02,0.000000000000000000e+00
1.635000000000000000e+02,0.000000000000000000e+00
1.645000000000000000e+02,0.000000000000000000e+00
1.655000000000000000e+02,0.000000000000000000e+00
1.665000000000000000e+02,0.000000000000000000e+00
1.675000000000000000e+02,0.000000000000000000e+00
1.685000000000000000e+02,0.000000000000000000e+00
1.695000000000000000e+02,0.000000000000000000e+00
1.705000000000000000e+02,0.000000000000000000e+00
1.715000000000000000e+02,0.000000000000000000e+00
1.725000000000000000e+02,0.000000000000000000e+00
1.735000000000000000e+02,0.000000000000000000e+00
1.745000000000000000e+02,0.000000000000000000e+00
1.755000000000000000e+02,0.000000000000000000e+00
1.765000000000000000e+02,0.000000000000000000e+00
1.775000000000000000e+02,0.000000000000000000e+00
1.785000000000000000e+02,0.000000000000000000e+00
1.795000000000000000e+02,0.000000000000000000e+00
1.805000000000000000e+02,0.000000000000000000e+00
1.815000000000000000e+02,0.000000000000000000e+00
1.825000000000000000e+02,0.000000000000000000e+00
1.835000000000000000e+02,0.000000000000000000e+00
1.845000000000000000e+02,0.000000000000000000e+00
1.855000000000000000e+02,0.000000000000000000e+00
1.865000000000000000e+02,0.000000000000000000e+00
1.875000000000000000e+02,0.000000000000000000e+00
1.885000000000000000e+02,0.000000000000000000e+00
1.895000000000000000e+02,0.000000000000000000e+00
1.905000000000000000e+02,0.000000000000000000e+00
1.915000000000000000e+02,0.000000000000000000e+00
1.925000000000000000e+02,0.000000000000000000e+00
1.935000000000000000e+02,0.000000000000000000e+00
1.945000000000000000e+02,0.000000000000000000e+00
1.955000000000000000e+02,0.000000000000000000e+00
1.965000000000000000e+02,0.000000000000000000e+00
1.975000000000000000e+02,0.000000000000000000e+00
1.985000000000000000e+02,0.000000000000000000e+00
1.995000000000000000e+02,0.000000000000000000e+00
2.005000000000000000e+02,0.000000000000000000e+00
2.015000000000000000e+02,0.000000000000000000e+00
2.025000000000000000e+02,0.000000000000000000e+00
2.035000000000000000e+02,0.000000000000000000e+00
2.045000000000000000e+02,0.000000000000000000e+00
2.055000000000000000e+02,0.000000000000000000e+00
2.065000000000000000e+02,0.000000000000000000e+00
2.075000000000000000e+02,0.000000000000000000e+00
2.085000000000000000e+02,0.000000000000000000e+00
2.095000000000000000e+02,0.000000000000000000e+00
2.105000000000000000e+02,0.000000000000000000e+00
2.115000000000000000e+02,0.000000000000000000e+00
2.125000000000000000e+02,0.000000000000000000e+00
2.135000000000000000e+02,0.000000000000000000e+00
2.145000000000000000e+02,0.000000000000000000e+00
2.155000000000000000e+02,0.000000000000000000e+00
2.165000000000000000e+02,0.000000000000000000e+00
2.175000000000000000e+02,0.000000000000000000e+00
2.185000000000000000e+02,0.000000000000000000e+00
2.195000000000000000e+02,0.000000000000000000e+00
2.205000000000000000e+02,0.000000000000000000e+00
2.215000000000000000e+02,0.000000000000000000e+00
2.225000000000000000e+02,0.000000000000000000e+00
2.235000000000000000e+02,0.000000000000000000e+00
2.245000000000000000e+02,0.000000000000000000e+00
2.255000000000000000e+02,0.000000000000000000e+00
2.265000000000000000e+02,0.000000000000000000e+00
2.275000000000000000e+02,0.000000000000000000e+00
2.285000000000000000e+02,0.000000000000000000e+00
2.295000000000000000e+02,0.000000000000000000e+00
2.305000000000000000e+02,0.000000000000000000e+00
2.315000000000000000e+02,0.000000000000000000e+00
2.325000000000000000e+02,0.000000000000000000e+00
2.335000000000000000e+02,0.000000000000000000e+00
2.345000000000000000e+02,0.000000000000000000e+00
2.355000000000000000e+02,0.000000000000000000e+00
2.365000000000000000e+02,0.000000000000000000e+00
2.375000000000000000e+02,0.000000000000000000e+00
2.385000000000000000e+02,0.000000000000000000e+00
2.395000000000000000e+02,0.000000000000000000e+00
2.405000000000000000e+02,0.000000000000000000e+00
2.415000000000000000e+02,0.000000000000000000e+00
2.425000000000000000e+02,0.000000000000000000e+00
2.435000000000000000e+02,0.000000000000000000e+00
2.445000000000000000e+02,0.000000000000000000e+00
2.455000000000000000e+02,0.000000000000000000e+00
2.465000000000000000e+02,0.000000000000000000e+00
2.475000000000000000e+02,0.000000000000000000e+00
2.485000000000000000e+02,0.000000000000000000e+00
2.495000000000000000e+02,0.000000000000000000e+00
2.505000000000000000e+02,0.000000000000000000e+00
2.515000000000000000e+02,0.000000000000000000e+00
2.525000000000000000e+02,0.000000000000000000e+00
2.535000000000000000e+02,0.000000000000000000e+00
2.545000000000000000e+02,0.000000000000000000e+00
2.555000000000000000e+02,0.000000000000000000e+00
2.565000000000000000e+02,0.000000000000000000e+00
2.575000000000000000e+02,0.000000000000000000e+00
2.585000000000000000e+02,0.000000000000000000e+00
2.595000000000000000e+02,0.000000000000000000e+00
2.605000000000000000e+02,0.000000000000000000e+00
2.615000000000000000e+02,0.000000000000000000e+00
2.625000000000000000e+02,0.000000000000000000e+00
2.635000000000000000e+02,0.000000000000000000e+00
2.645000000000000000e+02,0.000000000000000000e+00
2.655000000000000000e+02,0.000000000000000000e+00
2.665000000000000000e+02,0.000000000000000000e+00
2.675000000000000000e+02,0.000000000000000000e+00
2.685000000000000000e+02,0.000000000000000000e+00
2.695000000000000000e+02,0.000000000000000000e+00
2.705000000000000000e+02,0.000000000000000000e+00
2.715000000000000000e+02,0.000000000000000000e+00
2.725000000000000000e+02,0.000000000000000000e+00
2.735000000000000000e+02,0.000000000000000000e+00
2.745000000000000000e+02,0.000000000000000000e+00
2.755000000000000000e+02,0.000000000000000000e+00
2.765000000000000000e+02,0.000000000000000000e+00
2.775000000000000000e+02,0.000000000000000000e+00
2.785000000000000000e+02,0.000000000000000000e+00
2.795000000000000000e+02,0.000000000000000000e+00
2.805000000000000000e+02,0.000000000000000000e+00
2.815000000000000000e+02,0.000000000000000000e+00
2.825000000000000000e+02,0.000000000000000000e+00
2.835000000000000000e+02,0.000000000000000000e+00
2.845000000000000000e+02,0.000000000000000000e+00
2.855000000000000000e+02,0.000000000000000000e+00
2.865000000000000000e+02,0.000000000000000000e+00
2.875000000000000000e+02,0.000000000000000000e+00
2.885000000000000000e+02,0.000000000000000000e+00
2.895000000000000000e+02,0.000000000000000000e+00
2.905000000000000000e+02,0.000000000000000000e+00
2.915000000000000000e+02,0.000000000000000000e+00
2.925000000000000000e+02,0.000000000000000000e+00
2.935000000000000000e+02,0.000000000000000000e+00
2.945000000000000000e+02,0.000000000000000000e+00
2.955000000000000000e+02,0.000000000000000000e+00
2.965000000000000000e+02,0.000000000000000000e+00
2.975000000000000000e+02,0.000000000000000000e+00
2.985000000000000000e+02,0.000000000000000000e+00
2.995000000000000000e+02,0.000000000000000000e+00
