# Wavelength (nm)    Crosssection (cm^2)
0.5,3.716100000000000223e-24
1.5,7.186500000000000389e-23
2.5,3.558600000000000188e-22
3.5,1.035000000000000054e-21
4.5,2.284200000000000123e-21
5.5,4.259699999999999892e-21
6.5,7.093799999999999835e-21
7.5,1.089000000000000011e-20
8.5,1.574999999999999925e-20
9.5,2.176200000000000058e-20
10.5,2.905200000000000606e-20
11.5,3.781800000000000265e-20
12.5,4.837500000000000500e-20
13.5,6.122699999999999688e-20
14.5,7.701300000000000141e-20
15.5,9.764999999999999173e-20
16.5,1.220400000000000022e-19
17.5,1.643400000000000101e-19
18.5,1.955700000000000021e-19
19.5,2.236500000000000098e-19
20.5,2.365200000000000133e-19
21.5,3.109500000000000190e-19
22.5,3.438000000000000022e-19
23.5,3.968100000000000094e-19
24.5,4.506300000000000242e-19
25.5,5.570100000000000313e-19
26.5,6.239700000000000202e-19
27.5,6.640200000000000497e-19
28.5,7.273800000000000153e-19
29.5,8.250299999999999348e-19
30.5,9.252000000000000921e-19
31.5,1.043100000000000058e-18
32.5,1.229400000000000176e-18
33.5,1.302300000000000189e-18
34.5,1.391400000000000161e-18
35.5,1.538099999999999928e-18
36.5,1.693800000000000185e-18
37.5,1.854900000000000045e-18
38.5,1.999799999999999944e-18
39.5,2.153699999999999949e-18
40.5,2.306700000000000214e-18
41.5,2.451600000000000113e-18
42.5,2.595599999999999886e-18
43.5,2.735999999999999925e-18
44.5,2.890800000000000056e-18
45.5,3.105000000000000041e-18
46.5,3.278699999999999741e-18
47.5,3.415500000000000430e-18
48.5,3.614399999999999811e-18
49.5,3.836700000000000547e-18
50.5,4.055400000000000007e-18
51.5,4.274999999999999978e-18
52.5,4.509900000000000169e-18
53.5,4.751100000000000087e-18
54.5,4.988699999999999501e-18
55.5,5.222699999999999951e-18
56.5,5.406299999999999498e-18
57.5,5.339700000000000176e-18
58.5,5.238899999999999911e-18
59.5,5.436899999999999936e-18
60.5,5.997600000000000350e-18
61.5,6.558299999999999993e-18
62.5,6.950699999999999538e-18
63.5,7.146000000000000340e-18
64.5,7.461000000000000590e-18
65.5,7.784999999999999790e-18
66.5,8.019899999999999981e-18
67.5,8.281800000000000105e-18
68.5,8.584199999999999359e-18
69.5,8.913600000000000087e-18
70.5,9.144000000000000032e-18
71.5,9.566721999999998606e-18
72.5,9.672298999999999473e-18
73.5,9.482959999999999035e-18
74.5,8.465174000000000590e-18
75.5,7.233334999999999730e-18
76.5,6.010188000000000271e-18
77.5,4.786740000000000616e-18
78.5,3.548576000000000677e-18
79.5,2.308562999999999755e-18
80.5,5.111276999999999392e-19
81.5,0.000000000000000000e+00
82.5,0.000000000000000000e+00
83.5,0.000000000000000000e+00
84.5,0.000000000000000000e+00
85.5,0.000000000000000000e+00
86.5,0.000000000000000000e+00
87.5,0.000000000000000000e+00
88.5,0.000000000000000000e+00
89.5,0.000000000000000000e+00
90.5,0.000000000000000000e+00
91.5,0.000000000000000000e+00
92.5,0.000000000000000000e+00
93.5,0.000000000000000000e+00
94.5,0.000000000000000000e+00
95.5,0.000000000000000000e+00
96.5,0.000000000000000000e+00
97.5,0.000000000000000000e+00
98.5,0.000000000000000000e+00
99.5,0.000000000000000000e+00
100.5,0.000000000000000000e+00
101.5,0.000000000000000000e+00
102.5,0.000000000000000000e+00
103.5,0.000000000000000000e+00
104.5,0.000000000000000000e+00
105.5,0.000000000000000000e+00
106.5,0.000000000000000000e+00
107.5,0.000000000000000000e+00
108.5,0.000000000000000000e+00
109.5,0.000000000000000000e+00
110.5,0.000000000000000000e+00
111.5,0.000000000000000000e+00
112.5,0.000000000000000000e+00
113.5,0.000000000000000000e+00
114.5,0.000000000000000000e+00
115.5,0.000000000000000000e+00
116.5,0.000000000000000000e+00
117.5,0.000000000000000000e+00
118.5,0.000000000000000000e+00
119.5,0.000000000000000000e+00
120.5,0.000000000000000000e+00
121.5,0.000000000000000000e+00
122.5,0.000000000000000000e+00
123.5,0.000000000000000000e+00
124.5,0.000000000000000000e+00
125.5,0.000000000000000000e+00
126.5,0.000000000000000000e+00
127.5,0.000000000000000000e+00
128.5,0.000000000000000000e+00
129.5,0.000000000000000000e+00
130.5,0.000000000000000000e+00
131.5,0.000000000000000000e+00
132.5,0.000000000000000000e+00
133.5,0.000000000000000000e+00
134.5,0.000000000000000000e+00
135.5,0.000000000000000000e+00
136.5,0.000000000000000000e+00
137.5,0.000000000000000000e+00
138.5,0.000000000000000000e+00
139.5,0.000000000000000000e+00
140.5,0.000000000000000000e+00
141.5,0.000000000000000000e+00
142.5,0.000000000000000000e+00
143.5,0.000000000000000000e+00
144.5,0.000000000000000000e+00
145.5,0.000000000000000000e+00
146.5,0.000000000000000000e+00
147.5,0.000000000000000000e+00
148.5,0.000000000000000000e+00
149.5,0.000000000000000000e+00
150.5,0.000000000000000000e+00
151.5,0.000000000000000000e+00
152.5,0.000000000000000000e+00
153.5,0.000000000000000000e+00
154.5,0.000000000000000000e+00
155.5,0.000000000000000000e+00
156.5,0.000000000000000000e+00
157.5,0.000000000000000000e+00
158.5,0.000000000000000000e+00
159.5,0.000000000000000000e+00
160.5,0.000000000000000000e+00
161.5,0.000000000000000000e+00
162.5,0.000000000000000000e+00
163.5,0.000000000000000000e+00
164.5,0.000000000000000000e+00
165.5,0.000000000000000000e+00
166.5,0.000000000000000000e+00
167.5,0.000000000000000000e+00
168.5,0.000000000000000000e+00
169.5,0.000000000000000000e+00
170.5,0.000000000000000000e+00
171.5,0.000000000000000000e+00
172.5,0.000000000000000000e+00
173.5,0.000000000000000000e+00
174.5,0.000000000000000000e+00
175.5,0.000000000000000000e+00
176.5,0.000000000000000000e+00
177.5,0.000000000000000000e+00
178.5,0.000000000000000000e+00
179.5,0.000000000000000000e+00
180.5,0.000000000000000000e+00
181.5,0.000000000000000000e+00
182.5,0.000000000000000000e+00
183.5,0.000000000000000000e+00
184.5,0.000000000000000000e+00
185.5,0.000000000000000000e+00
186.5,0.000000000000000000e+00
187.5,0.000000000000000000e+00
188.5,0.000000000000000000e+00
189.5,0.000000000000000000e+00
190.5,0.000000000000000000e+00
191.5,0.000000000000000000e+00
192.5,0.000000000000000000e+00
193.5,0.000000000000000000e+00
194.5,0.000000000000000000e+00
195.5,0.000000000000000000e+00
196.5,0.000000000000000000e+00
197.5,0.000000000000000000e+00
198.5,0.000000000000000000e+00
199.5,0.000000000000000000e+00
200.5,0.000000000000000000e+00
201.5,0.000000000000000000e+00
202.5,0.000000000000000000e+00
203.5,0.000000000000000000e+00
204.5,0.000000000000000000e+00
205.5,0.000000000000000000e+00
206.5,0.000000000000000000e+00
207.5,0.000000000000000000e+00
208.5,0.000000000000000000e+00
209.5,0.000000000000000000e+00
210.5,0.000000000000000000e+00
211.5,0.000000000000000000e+00
212.5,0.000000000000000000e+00
213.5,0.000000000000000000e+00
214.5,0.000000000000000000e+00
215.5,0.000000000000000000e+00
216.5,0.000000000000000000e+00
217.5,0.000000000000000000e+00
218.5,0.000000000000000000e+00
219.5,0.000000000000000000e+00
220.5,0.000000000000000000e+00
221.5,0.000000000000000000e+00
222.5,0.000000000000000000e+00
223.5,0.000000000000000000e+00
224.5,0.000000000000000000e+00
225.5,0.000000000000000000e+00
226.5,0.000000000000000000e+00
227.5,0.000000000000000000e+00
228.5,0.000000000000000000e+00
229.5,0.000000000000000000e+00
230.5,0.000000000000000000e+00
231.5,0.000000000000000000e+00
232.5,0.000000000000000000e+00
233.5,0.000000000000000000e+00
234.5,0.000000000000000000e+00
235.5,0.000000000000000000e+00
236.5,0.000000000000000000e+00
237.5,0.000000000000000000e+00
238.5,0.000000000000000000e+00
239.5,0.000000000000000000e+00
240.5,0.000000000000000000e+00
241.5,0.000000000000000000e+00
242.5,0.000000000000000000e+00
243.5,0.000000000000000000e+00
244.5,0.000000000000000000e+00
245.5,0.000000000000000000e+00
246.5,0.000000000000000000e+00
247.5,0.000000000000000000e+00
248.5,0.000000000000000000e+00
249.5,0.000000000000000000e+00
250.5,0.000000000000000000e+00
251.5,0.000000000000000000e+00
252.5,0.000000000000000000e+00
253.5,0.000000000000000000e+00
254.5,0.000000000000000000e+00
255.5,0.000000000000000000e+00
256.5,0.000000000000000000e+00
257.5,0.000000000000000000e+00
258.5,0.000000000000000000e+00
259.5,0.000000000000000000e+00
260.5,0.000000000000000000e+00
261.5,0.000000000000000000e+00
262.5,0.000000000000000000e+00
263.5,0.000000000000000000e+00
264.5,0.000000000000000000e+00
265.5,0.000000000000000000e+00
266.5,0.000000000000000000e+00
267.5,0.000000000000000000e+00
268.5,0.000000000000000000e+00
269.5,0.000000000000000000e+00
270.5,0.000000000000000000e+00
271.5,0.000000000000000000e+00
272.5,0.000000000000000000e+00
273.5,0.000000000000000000e+00
274.5,0.000000000000000000e+00
275.5,0.000000000000000000e+00
276.5,0.000000000000000000e+00
277.5,0.000000000000000000e+00
278.5,0.000000000000000000e+00
279.5,0.000000000000000000e+00
280.5,0.000000000000000000e+00
281.5,0.000000000000000000e+00
282.5,0.000000000000000000e+00
283.5,0.000000000000000000e+00
284.5,0.000000000000000000e+00
285.5,0.000000000000000000e+00
286.5,0.000000000000000000e+00
287.5,0.000000000000000000e+00
288.5,0.000000000000000000e+00
289.5,0.000000000000000000e+00
290.5,0.000000000000000000e+00
291.5,0.000000000000000000e+00
292.5,0.000000000000000000e+00
293.5,0.000000000000000000e+00
294.5,0.000000000000000000e+00
295.5,0.000000000000000000e+00
296.5,0.000000000000000000e+00
297.5,0.000000000000000000e+00
298.5,0.000000000000000000e+00
299.5,0.000000000000000000e+00
