# Wavelength (nm)    Crosssection (cm^2)
5.000000000000000000e-01,6.193999999999999551e-19
1.500000000000000000e+00,6.193999999999999551e-19
2.500000000000000000e+00,6.193999999999999551e-19
3.500000000000000000e+00,6.193999999999999551e-19
4.500000000000000000e+00,6.193999999999999551e-19
5.500000000000000000e+00,6.193999999999999551e-19
6.500000000000000000e+00,6.193999999999999551e-19
7.500000000000000000e+00,7.318000000000000272e-19
8.500000000000000000e+00,9.895000000000000119e-19
9.500000000000000000e+00,1.384999999999999949e-18
1.050000000000000000e+01,1.712000000000000019e-18
1.150000000000000000e+01,2.008000000000000023e-18
1.250000000000000000e+01,2.454000000000000193e-18
1.350000000000000000e+01,2.856999999999999897e-18
1.450000000000000000e+01,3.392999999999999972e-18
1.550000000000000000e+01,4.028999999999999901e-18
1.650000000000000000e+01,4.634000000000000148e-18
1.750000000000000000e+01,5.214000000000000143e-18
1.850000000000000000e+01,5.822000000000000298e-18
1.950000000000000000e+01,6.437999999999999948e-18
2.050000000000000000e+01,6.977999999999999385e-18
2.150000000000000000e+01,7.749999999999999591e-18
2.250000000000000000e+01,8.683000000000000713e-18
2.350000000000000000e+01,9.331999999999999340e-18
2.450000000000000000e+01,1.019000000000000047e-17
2.550000000000000000e+01,1.092999999999999962e-17
2.650000000000000000e+01,1.139999999999999943e-17
2.750000000000000000e+01,1.176000000000000059e-17
2.850000000000000000e+01,1.214999999999999929e-17
2.950000000000000000e+01,1.244000000000000006e-17
3.050000000000000000e+01,1.270000000000000022e-17
3.150000000000000000e+01,1.320000000000000064e-17
3.250000000000000000e+01,1.382000000000000042e-17
3.350000000000000000e+01,1.418000000000000004e-17
3.450000000000000000e+01,1.462999999999999996e-17
3.550000000000000000e+01,1.533000000000000086e-17
3.650000000000000000e+01,1.593000000000000075e-17
3.750000000000000000e+01,1.673999999999999875e-17
3.850000000000000000e+01,1.763999999999999858e-17
3.950000000000000000e+01,1.829000000000000052e-17
4.050000000000000000e+01,1.885000000000000062e-17
4.150000000000000000e+01,1.949999999999999947e-17
4.250000000000000000e+01,2.027999999999999994e-17
4.350000000000000000e+01,2.088999999999999901e-17
4.450000000000000000e+01,2.181000000000000027e-17
4.550000000000000000e+01,2.252000000000000035e-17
4.650000000000000000e+01,2.297000000000000026e-17
4.750000000000000000e+01,2.391999999999999906e-17
4.850000000000000000e+01,2.397000000000000111e-17
4.950000000000000000e+01,2.429999999999999858e-17
5.050000000000000000e+01,2.427000000000000105e-17
5.150000000000000000e+01,2.465000000000000057e-17
5.250000000000000000e+01,2.446999999999999999e-17
5.350000000000000000e+01,2.446000000000000081e-17
5.450000000000000000e+01,2.470999999999999871e-17
5.550000000000000000e+01,2.484000000000000033e-17
5.650000000000000000e+01,2.473999999999999932e-17
5.750000000000000000e+01,2.421519100000000016e-17
5.850000000000000000e+01,2.068394400000000140e-17
5.950000000000000000e+01,2.121983599999999951e-17
6.050000000000000000e+01,2.156965199999999888e-17
6.150000000000000000e+01,2.186021599999999856e-17
6.250000000000000000e+01,2.166712999999999851e-17
6.350000000000000000e+01,1.989767600000000099e-17
6.450000000000000000e+01,1.940735000000000020e-17
6.550000000000000000e+01,1.956767600000000043e-17
6.650000000000000000e+01,1.821172499999999852e-17
6.750000000000000000e+01,1.699554000000000070e-17
6.850000000000000000e+01,1.700327200000000084e-17
6.950000000000000000e+01,1.823660400000000160e-17
7.050000000000000000e+01,1.580925400000000196e-17
7.150000000000000000e+01,1.349815600000000101e-17
7.250000000000000000e+01,1.469490400000000141e-17
7.350000000000000000e+01,1.278156499999999844e-17
7.450000000000000000e+01,8.705981999999999286e-18
7.550000000000000000e+01,5.374628999999999599e-18
7.650000000000000000e+01,5.460049000000000181e-18
7.750000000000000000e+01,5.188453200000000439e-18
7.850000000000000000e+01,6.534396000000000093e-18
7.950000000000000000e+01,6.999345000000000561e-18
8.050000000000000000e+01,8.277844000000000833e-18
8.150000000000000000e+01,6.467585999999999291e-18
8.250000000000000000e+01,3.465056400000000559e-18
8.350000000000000000e+01,3.934421400000000295e-18
8.450000000000000000e+01,3.531572999999999844e-18
8.550000000000000000e+01,3.935719200000000584e-18
8.650000000000000000e+01,3.291632800000000276e-18
8.750000000000000000e+01,3.720664700000000216e-18
8.850000000000000000e+01,5.847863999999999377e-18
8.950000000000000000e+01,1.233081199999999943e-17
9.050000000000000000e+01,5.005013999999999274e-18
9.150000000000000000e+01,3.259084399999999696e-18
9.250000000000000000e+01,6.463988000000000121e-18
9.350000000000000000e+01,3.231813599999999999e-18
9.450000000000000000e+01,7.812810000000000261e-18
9.550000000000000000e+01,4.688203799999998975e-18
9.650000000000000000e+01,5.601953000000000532e-18
9.750000000000000000e+01,5.567162999999999502e-18
9.850000000000000000e+01,8.299227999999999917e-18
9.950000000000000000e+01,5.951325000000000186e-18
1.005000000000000000e+02,6.704726000000000634e-18
1.015000000000000000e+02,5.998673999999999886e-18
1.025000000000000000e+02,6.412000000000000240e-18
1.035000000000000000e+02,5.679298799999999941e-18
1.045000000000000000e+02,5.620150399999999439e-18
1.055000000000000000e+02,5.002178999999999705e-18
1.065000000000000000e+02,4.394359199999999555e-18
1.075000000000000000e+02,3.627181599999999666e-18
1.085000000000000000e+02,5.130728000000000175e-18
1.095000000000000000e+02,3.185392000000000068e-18
1.105000000000000000e+02,3.400383999999999748e-18
1.115000000000000000e+02,3.385155000000000304e-18
1.125000000000000000e+02,2.693027200000000202e-18
1.135000000000000000e+02,2.225766399999999891e-18
1.145000000000000000e+02,2.112701999999999730e-18
1.155000000000000000e+02,2.425228800000000045e-18
1.165000000000000000e+02,2.186848800000000085e-18
1.175000000000000000e+02,2.053489099999999903e-18
1.185000000000000000e+02,1.971948999999999845e-18
1.195000000000000000e+02,1.844354399999999829e-18
1.205000000000000000e+02,1.696490400000000166e-18
1.215000000000000000e+02,1.747287000000000123e-18
1.225000000000000000e+02,1.711691100000000098e-18
1.235000000000000000e+02,1.319722000000000041e-18
1.245000000000000000e+02,1.315667200000000045e-18
1.255000000000000000e+02,1.183981999999999945e-18
1.265000000000000000e+02,6.775201999999999765e-19
1.275000000000000000e+02,5.225039999999999855e-19
1.285000000000000000e+02,4.467581999999999560e-19
1.295000000000000000e+02,4.721091999999999723e-19
1.305000000000000000e+02,1.508830999999999999e-19
1.315000000000000000e+02,9.666783999999999247e-20
1.325000000000000000e+02,7.269300000000000485e-20
1.335000000000000000e+02,7.700211999999999832e-20
1.345000000000000000e+02,2.048874300000000030e-21
1.355000000000000000e+02,0.000000000000000000e+00
1.365000000000000000e+02,0.000000000000000000e+00
1.375000000000000000e+02,0.000000000000000000e+00
1.385000000000000000e+02,0.000000000000000000e+00
1.395000000000000000e+02,0.000000000000000000e+00
1.405000000000000000e+02,0.000000000000000000e+00
1.415000000000000000e+02,0.000000000000000000e+00
1.425000000000000000e+02,0.000000000000000000e+00
1.435000000000000000e+02,0.000000000000000000e+00
1.445000000000000000e+02,0.000000000000000000e+00
1.455000000000000000e+02,0.000000000000000000e+00
1.465000000000000000e+02,0.000000000000000000e+00
1.475000000000000000e+02,0.000000000000000000e+00
1.485000000000000000e+02,0.000000000000000000e+00
1.495000000000000000e+02,0.000000000000000000e+00
1.505000000000000000e+02,0.000000000000000000e+00
1.515000000000000000e+02,0.000000000000000000e+00
1.525000000000000000e+02,0.000000000000000000e+00
1.535000000000000000e+02,0.000000000000000000e+00
1.545000000000000000e+02,0.000000000000000000e+00
1.555000000000000000e+02,0.000000000000000000e+00
1.565000000000000000e+02,0.000000000000000000e+00
1.575000000000000000e+02,0.000000000000000000e+00
1.585000000000000000e+02,0.000000000000000000e+00
1.595000000000000000e+02,0.000000000000000000e+00
1.605000000000000000e+02,0.000000000000000000e+00
1.615000000000000000e+02,0.000000000000000000e+00
1.625000000000000000e+02,0.000000000000000000e+00
1.635000000000000000e+02,0.000000000000000000e+00
1.645000000000000000e+02,0.000000000000000000e+00
1.655000000000000000e+02,0.000000000000000000e+00
1.665000000000000000e+02,0.000000000000000000e+00
1.675000000000000000e+02,0.000000000000000000e+00
1.685000000000000000e+02,0.000000000000000000e+00
1.695000000000000000e+02,0.000000000000000000e+00
1.705000000000000000e+02,0.000000000000000000e+00
1.715000000000000000e+02,0.000000000000000000e+00
1.725000000000000000e+02,0.000000000000000000e+00
1.735000000000000000e+02,0.000000000000000000e+00
1.745000000000000000e+02,0.000000000000000000e+00
1.755000000000000000e+02,0.000000000000000000e+00
1.765000000000000000e+02,0.000000000000000000e+00
1.775000000000000000e+02,0.000000000000000000e+00
1.785000000000000000e+02,0.000000000000000000e+00
1.795000000000000000e+02,0.000000000000000000e+00
1.805000000000000000e+02,0.000000000000000000e+00
1.815000000000000000e+02,0.000000000000000000e+00
1.825000000000000000e+02,0.000000000000000000e+00
1.835000000000000000e+02,0.000000000000000000e+00
1.845000000000000000e+02,0.000000000000000000e+00
1.855000000000000000e+02,0.000000000000000000e+00
1.865000000000000000e+02,0.000000000000000000e+00
1.875000000000000000e+02,0.000000000000000000e+00
1.885000000000000000e+02,0.000000000000000000e+00
1.895000000000000000e+02,0.000000000000000000e+00
1.905000000000000000e+02,0.000000000000000000e+00
1.915000000000000000e+02,0.000000000000000000e+00
1.925000000000000000e+02,0.000000000000000000e+00
1.935000000000000000e+02,0.000000000000000000e+00
1.945000000000000000e+02,0.000000000000000000e+00
1.955000000000000000e+02,0.000000000000000000e+00
1.965000000000000000e+02,0.000000000000000000e+00
1.975000000000000000e+02,0.000000000000000000e+00
1.985000000000000000e+02,0.000000000000000000e+00
1.995000000000000000e+02,0.000000000000000000e+00
2.005000000000000000e+02,0.000000000000000000e+00
2.015000000000000000e+02,0.000000000000000000e+00
2.025000000000000000e+02,0.000000000000000000e+00
2.035000000000000000e+02,0.000000000000000000e+00
2.045000000000000000e+02,0.000000000000000000e+00
2.055000000000000000e+02,0.000000000000000000e+00
2.065000000000000000e+02,0.000000000000000000e+00
2.075000000000000000e+02,0.000000000000000000e+00
2.085000000000000000e+02,0.000000000000000000e+00
2.095000000000000000e+02,0.000000000000000000e+00
2.105000000000000000e+02,0.000000000000000000e+00
2.115000000000000000e+02,0.000000000000000000e+00
2.125000000000000000e+02,0.000000000000000000e+00
2.135000000000000000e+02,0.000000000000000000e+00
2.145000000000000000e+02,0.000000000000000000e+00
2.155000000000000000e+02,0.000000000000000000e+00
2.165000000000000000e+02,0.000000000000000000e+00
2.175000000000000000e+02,0.000000000000000000e+00
2.185000000000000000e+02,0.000000000000000000e+00
2.195000000000000000e+02,0.000000000000000000e+00
2.205000000000000000e+02,0.000000000000000000e+00
2.215000000000000000e+02,0.000000000000000000e+00
2.225000000000000000e+02,0.000000000000000000e+00
2.235000000000000000e+02,0.000000000000000000e+00
2.245000000000000000e+02,0.000000000000000000e+00
2.255000000000000000e+02,0.000000000000000000e+00
2.265000000000000000e+02,0.000000000000000000e+00
2.275000000000000000e+02,0.000000000000000000e+00
2.285000000000000000e+02,0.000000000000000000e+00
2.295000000000000000e+02,0.000000000000000000e+00
2.305000000000000000e+02,0.000000000000000000e+00
2.315000000000000000e+02,0.000000000000000000e+00
2.325000000000000000e+02,0.000000000000000000e+00
2.335000000000000000e+02,0.000000000000000000e+00
2.345000000000000000e+02,0.000000000000000000e+00
2.355000000000000000e+02,0.000000000000000000e+00
2.365000000000000000e+02,0.000000000000000000e+00
2.375000000000000000e+02,0.000000000000000000e+00
2.385000000000000000e+02,0.000000000000000000e+00
2.395000000000000000e+02,0.000000000000000000e+00
2.405000000000000000e+02,0.000000000000000000e+00
2.415000000000000000e+02,0.000000000000000000e+00
2.425000000000000000e+02,0.000000000000000000e+00
2.435000000000000000e+02,0.000000000000000000e+00
2.445000000000000000e+02,0.000000000000000000e+00
2.455000000000000000e+02,0.000000000000000000e+00
2.465000000000000000e+02,0.000000000000000000e+00
2.475000000000000000e+02,0.000000000000000000e+00
2.485000000000000000e+02,0.000000000000000000e+00
2.495000000000000000e+02,0.000000000000000000e+00
2.505000000000000000e+02,0.000000000000000000e+00
2.515000000000000000e+02,0.000000000000000000e+00
2.525000000000000000e+02,0.000000000000000000e+00
2.535000000000000000e+02,0.000000000000000000e+00
2.545000000000000000e+02,0.000000000000000000e+00
2.555000000000000000e+02,0.000000000000000000e+00
2.565000000000000000e+02,0.000000000000000000e+00
2.575000000000000000e+02,0.000000000000000000e+00
2.585000000000000000e+02,0.000000000000000000e+00
2.595000000000000000e+02,0.000000000000000000e+00
2.605000000000000000e+02,0.000000000000000000e+00
2.615000000000000000e+02,0.000000000000000000e+00
2.625000000000000000e+02,0.000000000000000000e+00
2.635000000000000000e+02,0.000000000000000000e+00
2.645000000000000000e+02,0.000000000000000000e+00
2.655000000000000000e+02,0.000000000000000000e+00
2.665000000000000000e+02,0.000000000000000000e+00
2.675000000000000000e+02,0.000000000000000000e+00
2.685000000000000000e+02,0.000000000000000000e+00
2.695000000000000000e+02,0.000000000000000000e+00
2.705000000000000000e+02,0.000000000000000000e+00
2.715000000000000000e+02,0.000000000000000000e+00
2.725000000000000000e+02,0.000000000000000000e+00
2.735000000000000000e+02,0.000000000000000000e+00
2.745000000000000000e+02,0.000000000000000000e+00
2.755000000000000000e+02,0.000000000000000000e+00
2.765000000000000000e+02,0.000000000000000000e+00
2.775000000000000000e+02,0.000000000000000000e+00
2.785000000000000000e+02,0.000000000000000000e+00
2.795000000000000000e+02,0.000000000000000000e+00
2.805000000000000000e+02,0.000000000000000000e+00
2.815000000000000000e+02,0.000000000000000000e+00
2.825000000000000000e+02,0.000000000000000000e+00
2.835000000000000000e+02,0.000000000000000000e+00
2.845000000000000000e+02,0.000000000000000000e+00
2.855000000000000000e+02,0.000000000000000000e+00
2.865000000000000000e+02,0.000000000000000000e+00
2.875000000000000000e+02,0.000000000000000000e+00
2.885000000000000000e+02,0.000000000000000000e+00
2.895000000000000000e+02,0.000000000000000000e+00
2.905000000000000000e+02,0.000000000000000000e+00
2.915000000000000000e+02,0.000000000000000000e+00
2.925000000000000000e+02,0.000000000000000000e+00
2.935000000000000000e+02,0.000000000000000000e+00
2.945000000000000000e+02,0.000000000000000000e+00
2.955000000000000000e+02,0.000000000000000000e+00
2.965000000000000000e+02,0.000000000000000000e+00
2.975000000000000000e+02,0.000000000000000000e+00
2.985000000000000000e+02,0.000000000000000000e+00
2.995000000000000000e+02,0.000000000000000000e+00
