# Wavelength (nm)    Crosssection (cm^2),
220.5,7.76E-18
221.5,8.56E-18
222.5,9.32E-18
223.5,1.00E-17
224.5,1.07E-17
225.5,1.15E-17
226.5,1.23E-17
227.5,1.31E-17
228.5,1.39E-17
229.5,1.45E-17
230.5,1.51E-17
231.5,1.55E-17
232.5,1.59E-17
233.5,1.63E-17
234.5,1.67E-17
235.5,1.69E-17
236.5,1.70E-17
237.5,1.69E-17
238.5,1.66E-17
239.5,1.63E-17
240.5,1.58E-17
241.5,1.54E-17
242.5,1.48E-17
243.5,1.42E-17
244.5,1.35E-17
245.5,1.27E-17
246.5,1.20E-17
247.5,1.12E-17
248.5,1.05E-17
249.5,9.84E-18
250.5,9.14E-18
251.5,8.53E-18
252.5,7.94E-18
253.5,7.38E-18
254.5,6.83E-18
255.5,6.26E-18
256.5,5.69E-18
257.5,5.14E-18
258.5,4.63E-18
259.5,4.18E-18
260.5,3.80E-18
261.5,3.50E-18
262.5,3.24E-18
263.5,3.01E-18
264.5,2.81E-18
265.5,2.62E-18
266.5,2.45E-18
267.5,2.29E-18
268.5,2.14E-18
269.5,2.00E-18
270.5,1.86E-18
271.5,1.73E-18
272.5,1.60E-18
273.5,1.49E-18
274.5,1.39E-18
275.5,1.30E-18
276.5,1.23E-18
277.5,1.17E-18
278.5,1.11E-18
279.5,1.06E-18
280.5,1.01E-18
281.5,9.49E-19
282.5,8.97E-19
283.5,8.47E-19
284.5,7.95E-19
285.5,7.49E-19
286.5,7.03E-19
287.5,6.55E-19
288.5,6.11E-19
289.5,5.66E-19
290.5,5.25E-19
291.5,4.88E-19
292.5,4.60E-19
293.5,4.38E-19
294.5,4.22E-19
295.5,4.10E-19
296.5,4.00E-19
297.5,3.89E-19
298.5,3.78E-19
299.5,3.65E-19
300.5,3.51E-19
301.5,3.37E-19
302.5,3.22E-19
303.5,3.07E-19
304.5,2.92E-19
305.5,2.77E-19
306.5,2.61E-19
307.5,2.47E-19
308.5,2.32E-19
309.5,2.20E-19
310.5,2.09E-19
311.5,2.00E-19
312.5,1.92E-19
313.5,1.85E-19
314.5,1.80E-19
315.5,1.74E-19
316.5,1.68E-19
317.5,1.61E-19
318.5,1.54E-19
319.5,1.45E-19
320.5,1.37E-19
321.5,1.27E-19
322.5,1.17E-19
323.5,1.07E-19
324.5,9.79E-20
325.5,8.87E-20
326.5,8.04E-20
327.5,7.28E-20
328.5,6.57E-20
329.5,5.94E-20
330.5,5.39E-20
331.5,4.89E-20
332.5,4.44E-20
333.5,4.04E-20
334.5,3.69E-20
335.5,3.37E-20
336.5,3.09E-20
337.5,2.85E-20
338.5,2.64E-20
339.5,2.47E-20
340.5,2.32E-20
341.5,2.20E-20
342.5,2.09E-20
343.5,1.99E-20
344.5,1.90E-20
345.5,1.81E-20
346.5,1.72E-20
347.5,1.62E-20
348.5,1.53E-20
349.5,1.44E-20
350.5,1.35E-20
351.5,1.26E-20
352.5,1.17E-20
353.5,1.09E-20
354.5,1.02E-20
355.5,9.51E-21
356.5,8.89E-21
357.5,8.34E-21
358.5,7.85E-21
359.5,7.41E-21
360.5,7.02E-21
361.5,6.68E-21
362.5,6.39E-21
363.5,6.13E-21
364.5,5.92E-21
365.5,5.74E-21
366.5,5.60E-21
367.5,5.50E-21
368.5,5.42E-21
369.5,5.38E-21
370.5,5.36E-21
371.5,5.36E-21
372.5,5.38E-21
373.5,5.42E-21
374.5,5.47E-21
375.5,5.54E-21
376.5,5.63E-21
377.5,5.75E-21
378.5,5.89E-21
379.5,6.07E-21
380.5,6.29E-21
381.5,6.56E-21
382.5,6.88E-21
383.5,7.25E-21
384.5,7.67E-21
385.5,8.14E-21
386.5,8.68E-21
387.5,9.24E-21
388.5,9.84E-21
389.5,1.05E-20
390.5,1.11E-20
391.5,1.18E-20
392.5,1.25E-20
393.5,1.32E-20
394.5,1.39E-20
395.5,1.45E-20
396.5,1.52E-20
397.5,1.59E-20
398.5,1.65E-20
399.5,1.71E-20
400.5,1.77E-20
401.5,1.82E-20
402.5,1.87E-20
403.5,1.93E-20
404.5,1.98E-20
405.5,2.02E-20
406.5,2.07E-20
407.5,2.11E-20
408.5,2.14E-20
409.5,2.18E-20
410.5,2.21E-20
411.5,2.24E-20
412.5,2.27E-20
413.5,2.29E-20
414.5,2.30E-20
415.5,2.31E-20
416.5,2.31E-20
417.5,2.30E-20
418.5,2.29E-20
419.5,2.28E-20
420.5,2.26E-20
421.5,2.23E-20
422.5,2.20E-20
423.5,2.17E-20
424.5,2.13E-20
425.5,2.10E-20
426.5,2.05E-20
427.5,2.01E-20
428.5,1.97E-20
429.5,1.92E-20
430.5,1.87E-20
431.5,1.82E-20
432.5,1.78E-20
433.5,1.72E-20
434.5,1.68E-20
435.5,1.63E-20
436.5,1.58E-20
437.5,1.53E-20
438.5,1.48E-20
439.5,1.43E-20
440.5,1.38E-20
441.5,1.33E-20
442.5,1.28E-20
443.5,1.23E-20
444.5,1.18E-20
445.5,1.13E-20
446.5,1.09E-20
447.5,1.04E-20
448.5,9.91E-21
449.5,9.46E-21
450.5,9.00E-21
451.5,8.54E-21
452.5,8.10E-21
453.5,7.67E-21
454.5,7.29E-21
455.5,6.86E-21
456.5,6.47E-21
457.5,6.11E-21
458.5,5.75E-21
459.5,5.39E-21
460.5,5.05E-21
461.5,4.74E-21
462.5,4.44E-21
463.5,4.15E-21
464.5,3.88E-21
465.5,3.62E-21
466.5,3.39E-21
467.5,3.16E-21
468.5,2.96E-21
469.5,2.77E-21
470.5,2.59E-21
471.5,2.42E-21
472.5,2.28E-21
473.5,2.14E-21
474.5,2.01E-21
475.5,1.90E-21
476.5,1.79E-21
477.5,1.69E-21
478.5,1.60E-21
479.5,1.52E-21
480.5,1.44E-21
481.5,1.37E-21
482.5,1.30E-21
483.5,1.23E-21
484.5,1.16E-21
485.5,1.10E-21
486.5,1.04E-21
487.5,9.85E-22
488.5,9.30E-22
489.5,8.80E-22
490.5,8.33E-22
491.5,7.87E-22
492.5,7.43E-22
493.5,7.02E-22
494.5,6.64E-22
495.5,6.28E-22
496.5,5.95E-22
497.5,5.65E-22
498.5,5.35E-22
499.5,5.07E-22
500.5,4.81E-22
501.5,4.56E-22
502.5,4.32E-22
503.5,4.09E-22
504.5,3.87E-22
505.5,3.66E-22
506.5,3.45E-22
507.5,3.25E-22
508.5,3.04E-22
509.5,2.85E-22
510.5,2.66E-22
511.5,2.47E-22
512.5,2.30E-22
513.5,2.12E-22
514.5,1.96E-22
515.5,1.80E-22
516.5,1.66E-22
517.5,1.52E-22
518.5,1.39E-22
519.5,1.28E-22
520.5,1.17E-22
521.5,1.08E-22
522.5,9.96E-23
523.5,9.22E-23
524.5,8.56E-23
525.5,8.03E-23
526.5,7.58E-23
527.5,7.17E-23
528.5,6.88E-23
529.5,6.65E-23
530.5,6.45E-23
531.5,6.29E-23
532.5,6.17E-23
533.5,6.09E-23
534.5,6.00E-23
535.5,5.96E-23
536.5,5.88E-23
537.5,5.82E-23
538.5,5.78E-23
539.5,5.72E-23
540.5,5.64E-23
541.5,5.55E-23
542.5,5.43E-23
543.5,5.30E-23
544.5,5.15E-23
545.5,4.98E-23
546.5,4.80E-23
547.5,4.60E-23
548.5,4.39E-23
549.5,4.15E-23
