# Wavelength (nm)    Crosssection (cm^2),
220.5,2.04E-21
221.5,1.24E-21
222.5,7.32E-22
223.5,4.52E-22
224.5,3.04E-22
225.5,2.04E-22
226.5,1.22E-22
227.5,6.14E-23
228.5,2.53E-23
229.5,8.33E-24
230.5,2.00E-24
231.5,1.00E-24
232.5,3.55E-24
233.5,2.48E-23
234.5,1.28E-22
235.5,5.29E-22
236.5,1.81E-21
237.5,5.08E-21
238.5,1.19E-20
239.5,2.39E-20
240.5,4.18E-20
241.5,6.61E-20
242.5,9.79E-20
243.5,1.40E-19
244.5,1.92E-19
245.5,2.58E-19
246.5,3.39E-19
247.5,4.44E-19
248.5,5.80E-19
249.5,7.57E-19
250.5,9.83E-19
251.5,1.27E-18
252.5,1.61E-18
253.5,2.00E-18
254.5,2.43E-18
255.5,2.84E-18
256.5,3.22E-18
257.5,3.57E-18
258.5,3.93E-18
259.5,4.37E-18
260.5,4.98E-18
261.5,5.81E-18
262.5,6.84E-18
263.5,7.98E-18
264.5,9.15E-18
265.5,1.03E-17
266.5,1.12E-17
267.5,1.20E-17
268.5,1.28E-17
269.5,1.34E-17
270.5,1.41E-17
271.5,1.48E-17
272.5,1.54E-17
273.5,1.59E-17
274.5,1.64E-17
275.5,1.68E-17
276.5,1.71E-17
277.5,1.74E-17
278.5,1.77E-17
279.5,1.79E-17
280.5,1.80E-17
281.5,1.80E-17
282.5,1.78E-17
283.5,1.75E-17
284.5,1.71E-17
285.5,1.66E-17
286.5,1.62E-17
287.5,1.57E-17
288.5,1.52E-17
289.5,1.46E-17
290.5,1.42E-17
291.5,1.36E-17
292.5,1.29E-17
293.5,1.22E-17
294.5,1.15E-17
295.5,1.08E-17
296.5,1.01E-17
297.5,9.28E-18
298.5,8.51E-18
299.5,7.77E-18
300.5,7.06E-18
301.5,6.40E-18
302.5,5.78E-18
303.5,5.23E-18
304.5,4.73E-18
305.5,4.29E-18
306.5,3.89E-18
307.5,3.52E-18
308.5,3.17E-18
309.5,2.83E-18
310.5,2.49E-18
311.5,2.16E-18
312.5,1.85E-18
313.5,1.57E-18
314.5,1.31E-18
315.5,1.09E-18
316.5,9.15E-19
317.5,7.77E-19
318.5,6.71E-19
319.5,5.88E-19
320.5,5.21E-19
321.5,4.64E-19
322.5,4.12E-19
323.5,3.64E-19
324.5,3.20E-19
325.5,2.79E-19
326.5,2.41E-19
327.5,2.07E-19
328.5,1.74E-19
329.5,1.45E-19
330.5,1.18E-19
331.5,9.36E-20
332.5,7.22E-20
333.5,5.41E-20
334.5,3.93E-20
335.5,2.77E-20
336.5,1.90E-20
337.5,1.27E-20
338.5,8.47E-21
339.5,5.70E-21
340.5,4.00E-21
341.5,3.04E-21
342.5,2.57E-21
343.5,2.40E-21
344.5,2.43E-21
345.5,2.59E-21
346.5,2.83E-21
347.5,3.13E-21
348.5,3.46E-21
349.5,3.85E-21
350.5,4.26E-21
351.5,4.70E-21
352.5,5.18E-21
353.5,5.70E-21
354.5,6.23E-21
355.5,6.80E-21
356.5,7.40E-21
357.5,8.01E-21
358.5,8.65E-21
359.5,9.30E-21
360.5,9.96E-21
361.5,1.07E-20
362.5,1.13E-20
363.5,1.20E-20
364.5,1.27E-20
365.5,1.34E-20
366.5,1.41E-20
367.5,1.47E-20
368.5,1.55E-20
369.5,1.61E-20
370.5,1.68E-20
371.5,1.74E-20
372.5,1.80E-20
373.5,1.87E-20
374.5,1.93E-20
375.5,1.98E-20
376.5,2.03E-20
377.5,2.08E-20
378.5,2.11E-20
379.5,2.16E-20
380.5,2.18E-20
381.5,2.21E-20
382.5,2.24E-20
383.5,2.24E-20
384.5,2.25E-20
385.5,2.25E-20
386.5,2.25E-20
387.5,2.24E-20
388.5,2.22E-20
389.5,2.21E-20
390.5,2.19E-20
391.5,2.18E-20
392.5,2.16E-20
393.5,2.14E-20
394.5,2.13E-20
395.5,2.11E-20
396.5,2.11E-20
397.5,2.10E-20
398.5,2.09E-20
399.5,2.08E-20
400.5,2.07E-20
401.5,2.07E-20
402.5,2.06E-20
403.5,2.05E-20
404.5,2.04E-20
405.5,2.03E-20
406.5,2.01E-20
407.5,2.00E-20
408.5,1.97E-20
409.5,1.96E-20
410.5,1.94E-20
411.5,1.91E-20
412.5,1.89E-20
413.5,1.86E-20
414.5,1.83E-20
415.5,1.79E-20
416.5,1.76E-20
417.5,1.72E-20
418.5,1.68E-20
419.5,1.65E-20
420.5,1.61E-20
421.5,1.57E-20
422.5,1.53E-20
423.5,1.49E-20
424.5,1.46E-20
425.5,1.43E-20
426.5,1.40E-20
427.5,1.36E-20
428.5,1.34E-20
429.5,1.31E-20
430.5,1.29E-20
431.5,1.27E-20
432.5,1.26E-20
433.5,1.24E-20
434.5,1.23E-20
435.5,1.23E-20
436.5,1.22E-20
437.5,1.22E-20
438.5,1.22E-20
439.5,1.23E-20
440.5,1.24E-20
441.5,1.26E-20
442.5,1.28E-20
443.5,1.30E-20
444.5,1.33E-20
445.5,1.37E-20
446.5,1.40E-20
447.5,1.44E-20
448.5,1.48E-20
449.5,1.53E-20
450.5,1.57E-20
451.5,1.61E-20
452.5,1.66E-20
453.5,1.71E-20
454.5,1.76E-20
455.5,1.80E-20
456.5,1.84E-20
457.5,1.87E-20
458.5,1.91E-20
459.5,1.94E-20
460.5,1.97E-20
461.5,1.99E-20
462.5,2.00E-20
463.5,2.02E-20
464.5,2.03E-20
465.5,2.03E-20
466.5,2.04E-20
467.5,2.04E-20
468.5,2.03E-20
469.5,2.03E-20
470.5,2.02E-20
471.5,2.01E-20
472.5,2.00E-20
473.5,1.99E-20
474.5,1.97E-20
475.5,1.94E-20
476.5,1.92E-20
477.5,1.90E-20
478.5,1.87E-20
479.5,1.85E-20
480.5,1.82E-20
481.5,1.79E-20
482.5,1.74E-20
483.5,1.71E-20
484.5,1.67E-20
485.5,1.63E-20
486.5,1.59E-20
487.5,1.54E-20
488.5,1.49E-20
489.5,1.45E-20
490.5,1.40E-20
491.5,1.35E-20
492.5,1.31E-20
493.5,1.26E-20
494.5,1.21E-20
495.5,1.16E-20
496.5,1.12E-20
497.5,1.07E-20
498.5,1.02E-20
499.5,9.79E-21
500.5,9.34E-21
501.5,8.90E-21
502.5,8.45E-21
503.5,8.02E-21
504.5,7.60E-21
505.5,7.18E-21
506.5,6.78E-21
507.5,6.39E-21
508.5,6.00E-21
509.5,5.63E-21
510.5,5.28E-21
511.5,4.94E-21
512.5,4.61E-21
513.5,4.29E-21
514.5,3.99E-21
515.5,3.70E-21
516.5,3.43E-21
517.5,3.17E-21
518.5,2.93E-21
519.5,2.70E-21
520.5,2.49E-21
521.5,2.28E-21
522.5,2.08E-21
523.5,1.90E-21
524.5,1.74E-21
525.5,1.58E-21
526.5,1.43E-21
527.5,1.31E-21
528.5,1.18E-21
529.5,1.06E-21
530.5,9.57E-22
531.5,8.63E-22
532.5,7.74E-22
533.5,6.92E-22
534.5,6.18E-22
535.5,5.51E-22
536.5,4.91E-22
537.5,4.36E-22
538.5,3.85E-22
539.5,3.40E-22
540.5,2.99E-22
541.5,2.63E-22
542.5,2.31E-22
543.5,2.02E-22
544.5,1.76E-22
545.5,1.53E-22
546.5,1.32E-22
547.5,1.14E-22
548.5,9.80E-23
549.5,8.41E-23
550.5,7.21E-23
551.5,6.17E-23
552.5,5.19E-23
553.5,4.38E-23
554.5,3.70E-23
555.5,3.14E-23
